# 1w(eV)   RpP(cm^2/W)       RsP(cm^2/W)       RpS(cm^2/W)       RsS(cm^2/W)
01.2500    9.16988599e-22    2.96988920e-25    7.49519295e-23    2.26731381e-23
01.2600    9.23045811e-22    3.01597198e-25    7.60488551e-23    2.29988547e-23
01.2700    9.34987400e-22    3.10676321e-25    7.82241714e-23    2.36446586e-23
01.2800    9.52489644e-22    3.23982557e-25    8.14423352e-23    2.45997463e-23
01.2900    9.75117499e-22    3.41228452e-25    8.56538543e-23    2.58490528e-23
01.3000    1.00237422e-21    3.62177065e-25    9.07999069e-23    2.73746297e-23
01.3100    1.03375206e-21    3.86767299e-25    9.68185865e-23    2.91575082e-23
01.3200    1.06877586e-21    4.15268030e-25    1.03652857e-22    3.11800710e-23
01.3300    1.10703356e-21    4.48456038e-25    1.11260236e-22    3.34289376e-23
01.3400    1.14819082e-21    4.87809116e-25    1.19624062e-22    3.58983125e-23
01.3500    1.19199068e-21    5.35701643e-25    1.28765847e-22    3.85936516e-23
01.3600    1.23824122e-21    5.95586024e-25    1.38757832e-22    4.15353718e-23
01.3700    1.28679672e-21    6.72140643e-25    1.49734379e-22    4.47622043e-23
01.3800    1.33753834e-21    7.71363906e-25    1.61900559e-22    4.83336925e-23
01.3900    1.39036060e-21    9.00594666e-25    1.75536127e-22    5.23313090e-23
01.4000    1.44516962e-21    1.06844163e-24    1.90993342e-22    5.68577334e-23
01.4100    1.50189793e-21    1.28460855e-24    2.08687642e-22    6.20340047e-23
01.4200    1.56053984e-21    1.55960730e-24    2.29081140e-22    6.79945483e-23
01.4300    1.62120964e-21    1.90435413e-24    2.52660172e-22    7.48804512e-23
01.4400    1.68422323e-21    2.32964634e-24    2.79909562e-22    8.28317793e-23
01.4500    1.75020145e-21    2.84551861e-24    3.11287677e-22    9.19801383e-23
01.4600    1.82019023e-21    3.46048459e-24    3.47207448e-22    1.02443006e-22
01.4700    1.89579058e-21    4.18068182e-24    3.88029392e-22    1.14321598e-22
01.4800    1.97928520e-21    5.00895359e-24    4.34072121e-22    1.27703862e-22
01.4900    2.07374589e-21    5.94392901e-24    4.85644297e-22    1.42673740e-22
01.5000    2.18310435e-21    6.97921975e-24    5.43098683e-22    1.59326875e-22
01.5100    2.31216423e-21    8.10293721e-24    6.06903126e-22    1.77791244e-22
01.5200    2.46653164e-21    9.29781293e-24    6.77716675e-22    1.98249276e-22
01.5300    2.65244430e-21    1.05422344e-23    7.56451838e-22    2.20955962e-22
01.5400    2.87648466e-21    1.18124885e-23    8.44297437e-22    2.46245564e-22
01.5500    3.14517244e-21    1.30864852e-23    9.42673424e-22    2.74518692e-22
01.5600    3.46444859e-21    1.43492512e-23    1.05309187e-21    3.06202361e-22
01.5700    3.83908043e-21    1.56003986e-23    1.17690867e-21    3.41678644e-22
01.5800    4.27203313e-21    1.68633516e-23    1.31496916e-21    3.81182969e-22
01.5900    4.76386368e-21    1.81955316e-23    1.46717658e-21    4.24680456e-22
01.6000    5.31219984e-21    1.96982792e-23    1.63204051e-21    4.71736834e-22
01.6100    5.91136015e-21    2.15249411e-23    1.80628718e-21    5.21407515e-22
01.6200    6.55215267e-21    2.38851317e-23    1.98462742e-21    5.72172230e-22
01.6300    7.22186440e-21    2.70428610e-23    2.15977366e-21    6.21941332e-22
01.6400    7.90443044e-21    3.13062458e-23    2.32277189e-21    6.68152367e-22
01.6500    8.58076012e-21    3.70070526e-23    2.46366821e-21    7.07962158e-22
01.6600    9.22920516e-21    4.44695173e-23    2.57247018e-21    7.38522591e-22
01.6700    9.82617998e-21    5.39697492e-23    2.64030124e-21    7.57310629e-22
01.6800    1.03469790e-20    6.56894207e-23    2.66059643e-21    7.62468865e-22
01.6900    1.07668619e-20    7.96699239e-23    2.63016025e-21    7.53105356e-22
01.7000    1.10624744e-20    9.57750813e-23    2.54991158e-21    7.29502971e-22
01.7100    1.12136295e-20    1.13671065e-22    2.42517635e-21    6.93198974e-22
01.7200    1.12053823e-20    1.32830766e-22    2.26545056e-21    6.46913439e-22
01.7300    1.10302106e-20    1.52566276e-22    2.08363189e-21    5.94326916e-22
01.7400    1.06899965e-20    1.72087818e-22    1.89479593e-21    5.39729763e-22
01.7500    1.01974208e-20    1.90581656e-22    1.71465842e-21    4.87584131e-22
01.7600    9.57638404e-21    2.07294619e-22    1.55791064e-21    4.42052143e-22
01.7700    8.86115961e-21    2.21610458e-22    1.43663445e-21    4.06548945e-22
01.7800    8.09416229e-21    2.33104189e-22    1.35899587e-21    3.83376646e-22
01.7900    7.32244408e-21    2.41564839e-22    1.32838329e-21    3.73485420e-22
01.8000    6.59326178e-21    2.46983746e-22    1.34310192e-21    3.76392373e-22
01.8100    5.94924835e-21    2.49512923e-22    1.39666709e-21    3.90269012e-22
01.8200    5.42382571e-21    2.49404211e-22    1.47866144e-21    4.12186492e-22
01.8300    5.03750206e-21    2.46943393e-22    1.57604707e-21    4.38487017e-22
01.8400    4.79560212e-21    2.42393502e-22    1.67476148e-21    4.65232789e-22
01.8500    4.68780299e-21    2.35958390e-22    1.76138818e-21    4.88673578e-22
01.8600    4.68961554e-21    2.27772207e-22    1.82468480e-21    5.05672280e-22
01.8700    4.76569161e-21    2.17914294e-22    1.85677724e-21    5.14035345e-22
01.8800    4.87458151e-21    2.06443463e-22    1.85388262e-21    5.12710539e-22
01.8900    4.97434531e-21    1.93441942e-22    1.81649849e-21    5.01835384e-22
01.9000    5.02827115e-21    1.79057988e-22    1.74907548e-21    4.82642018e-22
01.9100    5.00990609e-21    1.63537292e-22    1.65926324e-21    4.57244204e-22
01.9200    4.90668120e-21    1.47236444e-22    1.55687086e-21    4.28346324e-22
01.9300    4.72161367e-21    1.30615959e-22    1.45270643e-21    3.98920404e-22
01.9400    4.47286688e-21    1.14214742e-22    1.35745494e-21    3.71895376e-22
01.9500    4.19129259e-21    9.86112882e-23    1.28072381e-21    3.49894225e-22
01.9600    3.91639752e-21    8.43788390e-23    1.23033930e-21    3.35041756e-22
01.9700    3.69140480e-21    7.20418038e-23    1.21192596e-21    3.28851424e-22
01.9800    3.55817542e-21    6.20394956e-23    1.22875485e-21    3.32186893e-22
01.9900    3.55270376e-21    5.47010564e-23    1.28181206e-21    3.45284524e-22
02.0000    3.70172679e-21    5.02328424e-23    1.37002064e-21    3.67818016e-22
02.0100    4.02074194e-21    4.87171482e-23    1.49054716e-21    3.98986084e-22
02.0200    4.51347509e-21    5.01197545e-23    1.63913564e-21    4.37607149e-22
02.0300    5.17262740e-21    5.43034486e-23    1.81042951e-21    4.82210155e-22
02.0400    5.98158513e-21    6.10449926e-23    1.99826185e-21    5.31115990e-22
02.0500    6.91671270e-21    7.00536010e-23    2.19591057e-21    5.82508529e-22
02.0600    7.94985505e-21    8.09895508e-23    2.39632543e-21    6.34497157e-22
02.0700    9.05073279e-21    9.34818583e-23    2.59233781e-21    6.85173775e-22
02.0800    1.01890068e-20    1.07144126e-22    2.77686422e-21    7.32667237e-22
02.0900    1.13358982e-20    1.21587946e-22    2.94311170e-21    7.75197458e-22
02.1000    1.24653523e-20    1.36433640e-22    3.08479074e-21    8.11130648e-22
02.1100    1.35548188e-20    1.51318536e-22    3.19633773e-21    8.39036263e-22
02.1200    1.45857705e-20    1.65903459e-22    3.27314558e-21    8.57745266e-22
02.1300    1.55440960e-20    1.79878381e-22    3.31179533e-21    8.66407910e-22
02.1400    1.64204542e-20    1.92968065e-22    3.31027407e-21    8.64547310e-22
02.1500    1.72105941e-20    2.04937796e-22    3.26815558e-21    8.52102886e-22
02.1600    1.79155421e-20    2.15598275e-22    3.18671298e-21    8.29455931e-22
02.1700    1.85414726e-20    2.24807876e-22    3.06893033e-21    7.97428999e-22
02.1800    1.90990474e-20    2.32470186e-22    2.91938561e-21    7.57252332e-22
02.1900    1.96020446e-20    2.38525388e-22    2.74399249e-21    7.10494334e-22
02.2000    2.00652215e-20    2.42935632e-22    2.54961013e-21    6.58958709e-22
02.2100    2.05015397e-20    2.45666729e-22    2.34355437e-21    6.04557121e-22
02.2200    2.09190816e-20    2.46670518e-22    2.13306498e-21    5.49171484e-22
02.2300    2.13181585e-20    2.45873554e-22    1.92479517e-21    4.94522907e-22
02.2400    2.16891933e-20    2.43177557e-22    1.72438835e-21    4.42063914e-22
02.2500    2.20119345e-20    2.38475201e-22    1.53619340e-21    3.92906829e-22
02.2600    2.22563882e-20    2.31681725e-22    1.36314552e-21    3.47795017e-22
02.2700    2.23855978e-20    2.22779422e-22    1.20681153e-21    3.07116388e-22
02.2800    2.23600768e-20    2.11868912e-22    1.06757225e-21    2.70951909e-22
02.2900    2.21433852e-20    1.99218866e-22    9.44896045e-22    2.39147150e-22
02.3000    2.17081026e-20    1.85305233e-22    8.37649262e-22    2.11392924e-22
02.3100    2.10412662e-20    1.70832196e-22    7.44391082e-22    1.87301579e-22
02.3200    2.01486266e-20    1.56728959e-22    6.63616619e-22    1.66469738e-22
02.3300    1.90570307e-20    1.44119380e-22    5.93925264e-22    1.48521663e-22
02.3400    1.78144316e-20    1.34264406e-22    5.34107914e-22    1.33131848e-22
02.3500    1.64875932e-20    1.28479926e-22    4.83167231e-22    1.20030395e-22
02.3600    1.51576504e-20    1.28035384e-22    4.40291079e-22    1.08996410e-22
02.3700    1.39139070e-20    1.34040391e-22    4.04802533e-22    9.98453740e-23
02.3800    1.28463615e-20    1.47328289e-22    3.76106172e-22    9.24155525e-23
02.3900    1.20375100e-20    1.68347144e-22    3.53643057e-22    8.65566121e-23
02.4000    1.15540235e-20    1.97069557e-22    3.36858678e-22    8.21216021e-23
02.4100    1.14389720e-20    2.32932547e-22    3.25181658e-22    7.89617686e-23
02.4200    1.17053722e-20    2.74817319e-22    3.18007804e-22    7.69228468e-23
02.4300    1.23319465e-20    3.21075880e-22    3.14685317e-22    7.58417019e-23
02.4400    1.32619944e-20    3.69607161e-22    3.14501368e-22    7.55432479e-23
02.4500    1.44061359e-20    4.17979989e-22    3.16675476e-22    7.58388291e-23
02.4600    1.56492975e-20    4.63594667e-22    3.20368111e-22    7.65280109e-23
02.4700    1.68617050e-20    5.03870009e-22    3.24712034e-22    7.74055553e-23
02.4800    1.79128931e-20    5.36439066e-22    3.28868653e-22    7.82741637e-23
02.4900    1.86870264e-20    5.59335189e-22    3.32103639e-22    7.89617089e-23
02.5000    1.90973281e-20    5.71150379e-22    3.33868234e-22    7.93398461e-23
