# RiF 1e-20 (cm^2/W)
# 1w(eV) RpP               RpS               RsP               RsS
00.00    nan    nan    nan    nan
00.01    nan    nan    nan    nan
00.02    nan    nan    nan    nan
00.03    nan    nan    nan    nan
00.04    nan    nan    nan    nan
00.05    nan    nan    nan    nan
00.06    nan    nan    nan    nan
00.07    nan    nan    nan    nan
00.08    nan    nan    nan    nan
00.09    nan    nan    nan    nan
00.10    nan    nan    nan    nan
00.11    nan    nan    nan    nan
00.12    nan    nan    nan    nan
00.13    nan    nan    nan    nan
00.14    nan    nan    nan    nan
00.15    nan    nan    nan    nan
00.16    nan    nan    nan    nan
00.17    nan    nan    nan    nan
00.18    3.82929822e-05    7.71164202e-07    1.37938417e-08    2.14490207e-07
00.19    4.62561115e-05    9.33502757e-07    1.66733053e-08    2.59630907e-07
00.20    5.54534907e-05    1.12161069e-06    2.00024038e-08    3.11933562e-07
00.21    6.60121330e-05    1.33829623e-06    2.38282438e-08    3.72177746e-07
00.22    7.80655988e-05    1.58654488e-06    2.82005261e-08    4.41192086e-07
00.23    9.17540011e-05    1.86952487e-06    3.31715728e-08    5.19855737e-07
00.24    1.07224011e-04    2.19059285e-06    3.87963545e-08    6.09099958e-07
00.25    1.24628867e-04    2.55330018e-06    4.51325196e-08    7.09909798e-07
00.26    1.44128381e-04    2.96139944e-06    5.22404248e-08    8.23325900e-07
00.27    1.65888948e-04    3.41885162e-06    6.01831669e-08    9.50446419e-07
00.28    1.90083561e-04    3.92983361e-06    6.90266169e-08    1.09242907e-06
00.29    2.16891816e-04    4.49874624e-06    7.88394540e-08    1.25049331e-06
00.30    2.46499929e-04    5.13022283e-06    8.96932025e-08    1.42592263e-06
00.31    2.79100745e-04    5.82913812e-06    1.01662269e-07    1.62006704e-06
00.32    3.14893754e-04    6.60061782e-06    1.14823982e-07    1.83434569e-06
00.33    3.54085101e-04    7.45004872e-06    1.29258629e-07    2.07024961e-06
00.34    3.96887606e-04    8.38308935e-06    1.45049502e-07    2.32934470e-06
00.35    4.43520781e-04    9.40568159e-06    1.62282937e-07    2.61327484e-06
00.36    4.94210850e-04    1.05240628e-05    1.81048356e-07    2.92376527e-06
00.37    5.49190777e-04    1.17447789e-05    2.01438317e-07    3.26262611e-06
00.38    6.08700287e-04    1.30746986e-05    2.23548559e-07    3.63175614e-06
00.39    6.72985897e-04    1.45210275e-05    2.47478052e-07    4.03314684e-06
00.40    7.42300940e-04    1.60913242e-05    2.73329044e-07    4.46888660e-06
00.41    8.16905598e-04    1.77935168e-05    3.01207116e-07    4.94116532e-06
00.42    8.97066928e-04    1.96359197e-05    3.31221230e-07    5.45227916e-06
00.43    9.83058901e-04    2.16272532e-05    3.63483778e-07    6.00463569e-06
00.44    1.07516244e-03    2.37766624e-05    3.98110632e-07    6.60075931e-06
00.45    1.17366547e-03    2.60937390e-05    4.35221196e-07    7.24329706e-06
00.46    1.27886296e-03    2.85885441e-05    4.74938454e-07    7.93502478e-06
00.47    1.39105697e-03    3.12716319e-05    5.17389024e-07    8.67885368e-06
00.48    1.51055675e-03    3.41540759e-05    5.62703210e-07    9.47783734e-06
00.49    1.63767874e-03    3.72474957e-05    6.11015058e-07    1.03351792e-05
00.50    1.77274665e-03    4.05640865e-05    6.62462414e-07    1.12542403e-05
00.51    1.91609155e-03    4.41166493e-05    7.17186968e-07    1.22385482e-05
00.52    2.06805189e-03    4.79186242e-05    7.75334322e-07    1.32918055e-05
00.53    2.22897360e-03    5.19841250e-05    8.37054026e-07    1.44178998e-05
00.54    2.39921020e-03    5.63279772e-05    9.02499629e-07    1.56209141e-05
00.55    2.57912284e-03    6.09657578e-05    9.71828729e-07    1.69051376e-05
00.56    2.76908043e-03    6.59138384e-05    1.04520301e-06    1.82750775e-05
00.57    2.96945974e-03    7.11894313e-05    1.12278830e-06    1.97354723e-05
00.58    3.18064555e-03    7.68106388e-05    1.20475461e-06    2.12913044e-05
00.59    3.40303069e-03    8.27965062e-05    1.29127618e-06    2.29478156e-05
00.60    3.63701628e-03    8.91670790e-05    1.38253150e-06    2.47105222e-05
00.61    3.88301179e-03    9.59434642e-05    1.47870336e-06    2.65852324e-05
00.62    4.14143524e-03    1.03147896e-04    1.57997885e-06    2.85780638e-05
00.63    4.41271337e-03    1.10803808e-04    1.68654936e-06    3.06954631e-05
00.64    4.69728182e-03    1.18935906e-04    1.79861058e-06    3.29442269e-05
00.65    4.99558529e-03    1.27570254e-04    1.91636248e-06    3.53315239e-05
00.66    5.30807781e-03    1.36734357e-04    2.04000932e-06    3.78649191e-05
00.67    5.63522289e-03    1.46457258e-04    2.16975959e-06    4.05523992e-05
00.68    5.97749379e-03    1.56769637e-04    2.30582600e-06    4.34024012e-05
00.69    6.33537379e-03    1.67703924e-04    2.44842546e-06    4.64238426e-05
00.70    6.70935643e-03    1.79294416e-04    2.59777892e-06    4.96261548e-05
00.71    7.09994584e-03    1.91577408e-04    2.75411131e-06    5.30193191e-05
00.72    7.50765706e-03    2.04591337e-04    2.91765128e-06    5.66139066e-05
00.73    7.93301645e-03    2.18376932e-04    3.08863098e-06    6.04211200e-05
00.74    8.37656203e-03    2.32977385e-04    3.26728576e-06    6.44528404e-05
00.75    8.83884390e-03    2.48438532e-04    3.45385380e-06    6.87216775e-05
00.76    9.32042473e-03    2.64809049e-04    3.64857583e-06    7.32410244e-05
00.77    9.82188015e-03    2.82140672e-04    3.85169475e-06    7.80251172e-05
00.78    1.03437993e-02    3.00488431e-04    4.06345517e-06    8.30891014e-05
00.79    1.08867854e-02    3.19910913e-04    4.28410302e-06    8.84491034e-05
00.80    1.14514562e-02    3.40470547e-04    4.51388480e-06    9.41223103e-05
00.81    1.20384449e-02    3.62233916e-04    4.75304689e-06    1.00127057e-04
00.82    1.26484007e-02    3.85272110e-04    5.00183450e-06    1.06482924e-04
00.83    1.32819897e-02    4.09661109e-04    5.26049048e-06    1.13210842e-04
00.84    1.39398959e-02    4.35482213e-04    5.52925385e-06    1.20333214e-04
00.85    1.46228219e-02    4.62822527e-04    5.80835799e-06    1.27874052e-04
00.86    1.53314903e-02    4.91775496e-04    6.09802844e-06    1.35859121e-04
00.87    1.60666445e-02    5.22441519e-04    6.39848031e-06    1.44316114e-04
00.88    1.68290504e-02    5.54928630e-04    6.70991498e-06    1.53274845e-04
00.89    1.76194973e-02    5.89353280e-04    7.03251632e-06    1.62767458e-04
00.90    1.84387997e-02    6.25841218e-04    7.36644615e-06    1.72828685e-04
00.91    1.92877987e-02    6.64528503e-04    7.71183900e-06    1.83496121e-04
00.92    2.01673642e-02    7.05562655e-04    8.06879606e-06    1.94810550e-04
00.93    2.10783963e-02    7.49103990e-04    8.43737830e-06    2.06816319e-04
00.94    2.20218282e-02    7.95327139e-04    8.81759854e-06    2.19561763e-04
00.95    2.29986282e-02    8.44422798e-04    9.20941231e-06    2.33099703e-04
00.96    2.40098035e-02    8.96599720e-04    9.61270699e-06    2.47487998e-04
00.97    2.50564030e-02    9.52086913e-04    1.00272892e-05    2.62790181e-04
00.98    2.61395223e-02    1.01113601e-03    1.04528703e-05    2.79076124e-04
00.99    2.72603084e-02    1.07402363e-03    1.08890510e-05    2.96422734e-04
01.00    2.84199650e-02    1.14105359e-03    1.13353064e-05    3.14914588e-04
01.01    2.96197576e-02    1.21255865e-03    1.17909759e-05    3.34644455e-04
01.02    3.08610170e-02    1.28890164e-03    1.22552611e-05    3.55713653e-04
01.03    3.21451394e-02    1.37047609e-03    1.27272391e-05    3.78232236e-04
01.04    3.34735833e-02    1.45770664e-03    1.32058955e-05    4.02319125e-04
01.05    3.48478614e-02    1.55105032e-03    1.36901798e-05    4.28102439e-04
01.06    3.62695292e-02    1.65099975e-03    1.41790825e-05    4.55720347e-04
01.07    3.77401734e-02    1.75808970e-03    1.46717274e-05    4.85322826e-04
01.08    3.92614044e-02    1.87290764e-03    1.51674696e-05    5.17074496e-04
01.09    4.08348590e-02    1.99610735e-03    1.56659869e-05    5.51158303e-04
01.10    4.24622182e-02    2.12842282e-03    1.61673635e-05    5.87779210e-04
01.11    4.41452433e-02    2.27067704e-03    1.66721739e-05    6.27166443e-04
01.12    4.58858290e-02    2.42377913e-03    1.71815972e-05    6.69572370e-04
01.13    4.76860668e-02    2.58870364e-03    1.76976107e-05    7.15266319e-04
01.14    4.95483094e-02    2.76644935e-03    1.82233190e-05    7.64522560e-04
01.15    5.14752179e-02    2.95798133e-03    1.87634688e-05    8.17603539e-04
01.16    5.34697808e-02    3.16416832e-03    1.93251555e-05    8.74741852e-04
01.17    5.55352865e-02    3.38573573e-03    1.99186704e-05    9.36126764e-04
01.18    5.76752457e-02    3.62325922e-03    2.05583470e-05    1.00190244e-03
01.19    5.98932601e-02    3.87722200e-03    2.12631947e-05    1.07218454e-03
01.20    6.21928487e-02    4.14814886e-03    2.20570542e-05    1.14709900e-03
01.21    6.45772533e-02    4.43681203e-03    2.29680300e-05    1.22684152e-03
01.22    6.70492547e-02    4.74448042e-03    2.40270406e-05    1.31174973e-03
01.23    6.96110437e-02    5.07316163e-03    2.52654975e-05    1.40237348e-03
01.24    7.22641941e-02    5.42577101e-03    2.67123424e-05    1.49952428e-03
01.25    7.50097812e-02    5.80616074e-03    2.83909012e-05    1.60428466e-03
01.26    7.78486751e-02    6.21895975e-03    3.03161960e-05    1.71796301e-03
01.27    8.07820033e-02    6.66921015e-03    3.24934512e-05    1.84198957e-03
01.28    8.38117367e-02    7.16183553e-03    3.49185075e-05    1.97776350e-03
01.29    8.69413015e-02    7.70102979e-03    3.75807357e-05    2.12647611e-03
01.30    9.01760774e-02    8.28970150e-03    4.04688574e-05    2.28894879e-03
01.31    9.35236176e-02    8.92913519e-03    4.35799013e-05    2.46553200e-03
01.32    9.69934385e-02    9.61902762e-03    4.69314046e-05    2.65611045e-03
01.33    1.00596275e-01    1.03580196e-02    5.05769342e-05    2.86024929e-03
01.34    1.04342783e-01    1.11447727e-02    5.46250128e-05    3.07749557e-03
01.35    1.08241789e-01    1.19795473e-02    5.92614998e-05    3.30782232e-03
01.36    1.12298293e-01    1.28661309e-02    6.47752522e-05    3.55217257e-03
01.37    1.16511571e-01    1.38138749e-02    7.15863561e-05    3.81303336e-03
01.38    1.20873762e-01    1.48395253e-02    8.02753166e-05    4.09495048e-03
01.39    1.25369422e-01    1.59685092e-02    9.16104296e-05    4.40488767e-03
01.40    1.29976484e-01    1.72353669e-02    1.06569438e-04    4.75234277e-03
01.41    1.34669067e-01    1.86830986e-02    1.26350760e-04    5.14915737e-03
01.42    1.39422455e-01    2.03613227e-02    1.52369461e-04    5.60899446e-03
01.43    1.44220435e-01    2.23233074e-02    1.86233692e-04    6.14650639e-03
01.44    1.49064962e-01    2.46221187e-02    2.29698813e-04    6.77626714e-03
01.45    1.53987876e-01    2.73063098e-02    2.84598063e-04    7.51159537e-03
01.46    1.59064090e-01    3.04157612e-02    3.52749682e-04    8.36344302e-03
01.47    1.64425455e-01    3.39784272e-02    4.35839582e-04    9.33956528e-03
01.48    1.70274300e-01    3.80088588e-02    5.35276544e-04    1.04442158e-02
01.49    1.76895504e-01    4.25093993e-02    6.52015525e-04    1.16786172e-02
01.50    1.84665877e-01    4.74748162e-02    7.86346926e-04    1.30424210e-02
01.51    1.94059386e-01    5.29007380e-02    9.37656649e-04    1.45362594e-02
01.52    2.05646698e-01    5.87955701e-02    1.10417373e-03    1.61652956e-02
01.53    2.20087361e-01    6.51945708e-02    1.28274045e-03    1.79433890e-02
01.54    2.38112908e-01    7.21735411e-02    1.46866227e-03    1.98971295e-02
01.55    2.60499216e-01    7.98583235e-02    1.65571407e-03    2.20686061e-02
01.56    2.88026908e-01    8.84253593e-02    1.83638431e-03    2.45154748e-02
01.57    3.21429906e-01    9.80885212e-02    2.00241977e-03    2.73068537e-02
01.58    3.61334406e-01    1.09068835e-01    2.14569537e-03    3.05139760e-02
01.59    4.08192933e-01    1.21546597e-01    2.25939660e-03    3.41954010e-02
01.60    4.62219323e-01    1.35599508e-01    2.33947394e-03    3.83778697e-02
01.61    5.23329556e-01    1.51135199e-01    2.38628894e-03    4.30353823e-02
01.62    5.91090476e-01    1.67830724e-01    2.40632317e-03    4.80704428e-02
01.63    6.64674933e-01    1.85094088e-01    2.41377985e-03    5.33022040e-02
01.64    7.42819221e-01    2.02062315e-01    2.43185160e-03    5.84660841e-02
01.65    8.23779317e-01    2.17646558e-01    2.49333534e-03    6.32281000e-02
01.66    9.05288290e-01    2.30627274e-01    2.64017626e-03    6.72147438e-02
01.67    9.84527786e-01    2.39792797e-01    2.92148483e-03    7.00560935e-02
01.68    1.05813889e+00    2.44104590e-01    3.38967488e-03    7.14366810e-02
01.69    1.12230638e+00    2.42864419e-01    4.09467910e-03    7.11462106e-02
01.70    1.17294966e+00    2.35854961e-01    5.07670236e-03    6.91212508e-02
01.71    1.20603970e+00    2.23427185e-01    6.35855988e-03    6.54698652e-02
01.72    1.21803351e+00    2.06515234e-01    7.93911506e-03    6.04737232e-02
01.73    1.20638213e+00    1.86571072e-01    9.78945365e-03    5.45659756e-02
01.74    1.17003328e+00    1.65424125e-01    1.18530607e-02    4.82872341e-02
01.75    1.10982894e+00    1.45082988e-01    1.40504228e-02    4.22254940e-02
01.76    1.02869909e+00    1.27504754e-01    1.62873799e-02    3.69481548e-02
01.77    9.31580111e-01    1.14361801e-01    1.84655559e-02    3.29352141e-02
01.78    8.25035711e-01    1.06836236e-01    2.04926619e-02    3.05223497e-02
01.79    7.16616300e-01    1.05469215e-01    2.22905931e-02    2.98612507e-02
01.80    6.14045028e-01    1.10086608e-01    2.37999646e-02    3.09024545e-02
01.81    5.24350446e-01    1.19814088e-01    2.49808002e-02    3.34032460e-02
01.82    4.53071168e-01    1.33183705e-01    2.58101204e-02    3.69600039e-02
01.83    4.03639837e-01    1.48321050e-01    2.62778486e-02    4.10609951e-02
01.84    3.77021549e-01    1.63188937e-01    2.63826228e-02    4.51524758e-02
01.85    3.71646361e-01    1.75852845e-01    2.61288032e-02    4.87087163e-02
01.86    3.83643153e-01    1.84728078e-01    2.55253674e-02    5.12958191e-02
01.87    4.07353436e-01    1.88770771e-01    2.45867219e-02    5.26202641e-02
01.88    4.36075349e-01    1.87584694e-01    2.33348821e-02    5.25558771e-02
01.89    4.62957369e-01    1.81431362e-01    2.18021173e-02    5.11467933e-02
01.90    4.81930498e-01    1.71148705e-01    2.00330511e-02    4.85881131e-02
01.91    4.88545578e-01    1.57999261e-01    1.80853594e-02    4.51894281e-02
01.92    4.80580917e-01    1.43479161e-01    1.60285562e-02    4.13285401e-02
01.93    4.58313467e-01    1.29122169e-01    1.39408196e-02    3.74032540e-02
01.94    4.24404552e-01    1.16329131e-01    1.19042622e-02    3.37882411e-02
01.95    3.83426515e-01    1.06244006e-01    9.99939386e-03    3.08020274e-02
01.96    3.41128944e-01    9.96857108e-02    8.29967122e-03    2.86866508e-02
01.97    3.03590837e-01    9.71333408e-02    6.86694129e-03    2.76000093e-02
01.98    2.76414898e-01    9.87532880e-02    5.74829115e-03    2.76188577e-02
01.99    2.64092487e-01    1.04451913e-01    4.97445661e-03    2.87491156e-02
02.00    2.69614136e-01    1.13937135e-01    4.55965168e-03    3.09397559e-02
02.01    2.94339632e-01    1.26775704e-01    4.50253070e-03    3.40969834e-02
02.02    3.38090931e-01    1.42438445e-01    4.78798619e-03    3.80964133e-02
02.03    3.99401497e-01    1.60331435e-01    5.38956225e-03    4.27921762e-02
02.04    4.75848655e-01    1.79815481e-01    6.27234479e-03    4.80229808e-02
02.05    5.64405290e-01    2.00218457e-01    7.39619965e-03    5.36159001e-02
02.06    6.61765013e-01    2.20845171e-01    8.71913162e-03    5.93889463e-02
02.07    7.64613383e-01    2.40988116e-01    1.02003653e-02    6.51534310e-02
02.08    8.69833371e-01    2.59940911e-01    1.18026032e-02    7.07168597e-02
02.09    9.74645485e-01    2.77015040e-01    1.34929120e-02    7.58868443e-02
02.10    1.07669277e+00    2.91560137e-01    1.52419037e-02    8.04763224e-02
02.11    1.17408854e+00    3.02988102e-01    1.70213240e-02    8.43102365e-02
02.12    1.26544887e+00    3.10801290e-01    1.88007258e-02    8.72336600e-02
02.13    1.34993014e+00    3.14624210e-01    2.05443802e-02    8.91210646e-02
02.14    1.42728164e+00    3.14236549e-01    2.22097312e-02    8.98859850e-02
02.15    1.49790702e+00    3.09603233e-01    2.37483981e-02    8.94898498e-02
02.16    1.56290967e+00    3.00895410e-01    2.51099965e-02    8.79483715e-02
02.17    1.62408287e+00    2.88495702e-01    2.62480711e-02    8.53338308e-02
02.18    1.68380204e+00    2.72982363e-01    2.71265732e-02    8.17719640e-02
02.19    1.74478772e+00    2.55090218e-01    2.77249233e-02    7.74329896e-02
02.20    1.80973346e+00    2.35650900e-01    2.80399839e-02    7.25174109e-02
02.21    1.88082617e+00    2.15519565e-01    2.80841654e-02    6.72383374e-02
02.22    1.95922018e+00    1.95498707e-01    2.78801068e-02    6.18028580e-02
02.23    2.04455146e+00    1.76270764e-01    2.74534742e-02    5.63952376e-02
02.24    2.13458971e+00    1.58349610e-01    2.68260327e-02    5.11643471e-02
02.25    2.22511899e+00    1.42057264e-01    2.60110645e-02    4.62168772e-02
02.26    2.31011232e+00    1.27527241e-01    2.50125116e-02    4.16167659e-02
02.27    2.38222392e+00    1.14731180e-01    2.38281763e-02    3.73901709e-02
02.28    2.43356895e+00    1.03521716e-01    2.24562516e-02    3.35344411e-02
02.29    2.45670356e+00    9.36826469e-02    2.09036852e-02    3.00290413e-02
02.30    2.44567026e+00    8.49773898e-02    1.91945807e-02    2.68462879e-02
02.31    2.39694783e+00    7.71882889e-02    1.73769668e-02    2.39600666e-02
02.32    2.31015153e+00    7.01421531e-02    1.55266758e-02    2.13513156e-02
02.33    2.18837088e+00    6.37206907e-02    1.37476146e-02    1.90098608e-02
02.34    2.03809957e+00    5.78576992e-02    1.21682242e-02    1.69330016e-02
02.35    1.86878705e+00    5.25272627e-02    1.09342889e-02    1.51219009e-02
02.36    1.69210015e+00    4.77283829e-02    1.01984834e-02    1.35771984e-02
02.37    1.52101204e+00    4.34712223e-02    1.01072534e-02    1.22952648e-02
02.38    1.36882716e+00    3.97685707e-02    1.07858788e-02    1.12661552e-02
02.39    1.24821660e+00    3.66337024e-02    1.23229060e-02    1.04736946e-02
02.40    1.17029669e+00    3.40832523e-02    1.47555251e-02    9.89743266e-03
02.41    1.14375792e+00    3.21418362e-02    1.80578017e-02    9.51562658e-03
02.42    1.17405243e+00    3.08443958e-02    2.21337669e-02    9.30810031e-03
02.43    1.26267685e+00    3.02328895e-02    2.68170889e-02    9.25787354e-03
02.44    1.40662936e+00    3.03458363e-02    3.18783457e-02    9.35085810e-03
02.45    1.59815570e+00    3.12017795e-02    3.70399036e-02    9.57356873e-03
02.46    1.82490713e+00    3.27801444e-02    4.19972590e-02    9.90948521e-03
02.47    2.07060468e+00    3.50044831e-02    4.64446453e-02    1.03352257e-02
02.48    2.31624088e+00    3.77333297e-02    5.01019548e-02    1.08178953e-02
02.49    2.54176783e+00    4.07628006e-02    5.27397755e-02    1.13147988e-02
02.50    2.72813461e+00    4.38430040e-02    5.41996447e-02    1.17762036e-02
02.51    2.85946532e+00    4.67077668e-02    5.44073829e-02    1.21511499e-02
02.52    2.92512328e+00    4.91147675e-02    5.33784056e-02    1.23956291e-02
02.53    2.92139150e+00    5.08912894e-02    5.12150527e-02    1.24819396e-02
02.54    2.85250892e+00    5.19794212e-02    4.80969704e-02    1.24077178e-02
02.55    2.73083985e+00    5.24734316e-02    4.42661909e-02    1.22029849e-02
02.56    2.57602428e+00    5.26413180e-02    4.00086834e-02    1.19335474e-02
02.57    2.41306786e+00    5.29226867e-02    3.56338897e-02    1.16992772e-02
02.58    2.26948473e+00    5.38968863e-02    3.14533554e-02    1.16262862e-02
02.59    2.17179382e+00    5.62193264e-02    2.77593398e-02    1.18528809e-02
02.60    2.14185298e+00    6.05300793e-02    2.48043845e-02    1.25104116e-02
02.61    2.19364228e+00    6.73461148e-02    2.27831925e-02    1.37014990e-02
02.62    2.33111777e+00    7.69548615e-02    2.18185623e-02    1.54792553e-02
02.63    2.54761409e+00    8.93299364e-02    2.19532290e-02    1.78315851e-02
02.64    2.82698608e+00    1.04088110e-01    2.31489676e-02    2.06741464e-02
